# Pulseq sequence file
# Created by MATLAB mr toolbox

[VERSION]
major 1
minor 1
revision 0

# Format of blocks:
#  #  D RF  GX  GY  GZ ADC
[BLOCKS]
    1  0  1   0   0   1  0
    2  0  0   2   3   4  0
    3  1  0   0   0   0  0
    4  0  0   5   0   0  1
    5  2  0   0   0   0  0
    6  0  1   0   0   1  0
    7  0  0   2   6   4  0
    8  1  0   0   0   0  0
    9  0  0   5   0   0  1
   10  2  0   0   0   0  0
   11  0  1   0   0   1  0
   12  0  0   2   7   4  0
   13  1  0   0   0   0  0
   14  0  0   5   0   0  1
   15  2  0   0   0   0  0
   16  0  1   0   0   1  0
   17  0  0   2   8   4  0
   18  1  0   0   0   0  0
   19  0  0   5   0   0  1
   20  2  0   0   0   0  0
   21  0  1   0   0   1  0
   22  0  0   2   9   4  0
   23  1  0   0   0   0  0
   24  0  0   5   0   0  1
   25  2  0   0   0   0  0
   26  0  1   0   0   1  0
   27  0  0   2  10   4  0
   28  1  0   0   0   0  0
   29  0  0   5   0   0  1
   30  2  0   0   0   0  0
   31  0  1   0   0   1  0
   32  0  0   2  11   4  0
   33  1  0   0   0   0  0
   34  0  0   5   0   0  1
   35  2  0   0   0   0  0
   36  0  1   0   0   1  0
   37  0  0   2  12   4  0
   38  1  0   0   0   0  0
   39  0  0   5   0   0  1
   40  2  0   0   0   0  0
   41  0  1   0   0   1  0
   42  0  0   2  13   4  0
   43  1  0   0   0   0  0
   44  0  0   5   0   0  1
   45  2  0   0   0   0  0
   46  0  1   0   0   1  0
   47  0  0   2  14   4  0
   48  1  0   0   0   0  0
   49  0  0   5   0   0  1
   50  2  0   0   0   0  0
   51  0  1   0   0   1  0
   52  0  0   2  15   4  0
   53  1  0   0   0   0  0
   54  0  0   5   0   0  1
   55  2  0   0   0   0  0
   56  0  1   0   0   1  0
   57  0  0   2  16   4  0
   58  1  0   0   0   0  0
   59  0  0   5   0   0  1
   60  2  0   0   0   0  0
   61  0  1   0   0   1  0
   62  0  0   2  17   4  0
   63  1  0   0   0   0  0
   64  0  0   5   0   0  1
   65  2  0   0   0   0  0
   66  0  1   0   0   1  0
   67  0  0   2  18   4  0
   68  1  0   0   0   0  0
   69  0  0   5   0   0  1
   70  2  0   0   0   0  0
   71  0  1   0   0   1  0
   72  0  0   2  19   4  0
   73  1  0   0   0   0  0
   74  0  0   5   0   0  1
   75  2  0   0   0   0  0
   76  0  1   0   0   1  0
   77  0  0   2  20   4  0
   78  1  0   0   0   0  0
   79  0  0   5   0   0  1
   80  2  0   0   0   0  0
   81  0  1   0   0   1  0
   82  0  0   2  21   4  0
   83  1  0   0   0   0  0
   84  0  0   5   0   0  1
   85  2  0   0   0   0  0
   86  0  1   0   0   1  0
   87  0  0   2  22   4  0
   88  1  0   0   0   0  0
   89  0  0   5   0   0  1
   90  2  0   0   0   0  0
   91  0  1   0   0   1  0
   92  0  0   2  23   4  0
   93  1  0   0   0   0  0
   94  0  0   5   0   0  1
   95  2  0   0   0   0  0
   96  0  1   0   0   1  0
   97  0  0   2  24   4  0
   98  1  0   0   0   0  0
   99  0  0   5   0   0  1
  100  2  0   0   0   0  0
  101  0  1   0   0   1  0
  102  0  0   2  25   4  0
  103  1  0   0   0   0  0
  104  0  0   5   0   0  1
  105  2  0   0   0   0  0
  106  0  1   0   0   1  0
  107  0  0   2  26   4  0
  108  1  0   0   0   0  0
  109  0  0   5   0   0  1
  110  2  0   0   0   0  0
  111  0  1   0   0   1  0
  112  0  0   2  27   4  0
  113  1  0   0   0   0  0
  114  0  0   5   0   0  1
  115  2  0   0   0   0  0
  116  0  1   0   0   1  0
  117  0  0   2  28   4  0
  118  1  0   0   0   0  0
  119  0  0   5   0   0  1
  120  2  0   0   0   0  0
  121  0  1   0   0   1  0
  122  0  0   2  29   4  0
  123  1  0   0   0   0  0
  124  0  0   5   0   0  1
  125  2  0   0   0   0  0
  126  0  1   0   0   1  0
  127  0  0   2  30   4  0
  128  1  0   0   0   0  0
  129  0  0   5   0   0  1
  130  2  0   0   0   0  0
  131  0  1   0   0   1  0
  132  0  0   2  31   4  0
  133  1  0   0   0   0  0
  134  0  0   5   0   0  1
  135  2  0   0   0   0  0
  136  0  1   0   0   1  0
  137  0  0   2  32   4  0
  138  1  0   0   0   0  0
  139  0  0   5   0   0  1
  140  2  0   0   0   0  0
  141  0  1   0   0   1  0
  142  0  0   2  33   4  0
  143  1  0   0   0   0  0
  144  0  0   5   0   0  1
  145  2  0   0   0   0  0
  146  0  1   0   0   1  0
  147  0  0   2  34   4  0
  148  1  0   0   0   0  0
  149  0  0   5   0   0  1
  150  2  0   0   0   0  0
  151  0  1   0   0   1  0
  152  0  0   2  35   4  0
  153  1  0   0   0   0  0
  154  0  0   5   0   0  1
  155  2  0   0   0   0  0
  156  0  1   0   0   1  0
  157  0  0   2  36   4  0
  158  1  0   0   0   0  0
  159  0  0   5   0   0  1
  160  2  0   0   0   0  0
  161  0  1   0   0   1  0
  162  0  0   2  37   4  0
  163  1  0   0   0   0  0
  164  0  0   5   0   0  1
  165  2  0   0   0   0  0
  166  0  1   0   0   1  0
  167  0  0   2  38   4  0
  168  1  0   0   0   0  0
  169  0  0   5   0   0  1
  170  2  0   0   0   0  0
  171  0  1   0   0   1  0
  172  0  0   2  39   4  0
  173  1  0   0   0   0  0
  174  0  0   5   0   0  1
  175  2  0   0   0   0  0
  176  0  1   0   0   1  0
  177  0  0   2  40   4  0
  178  1  0   0   0   0  0
  179  0  0   5   0   0  1
  180  2  0   0   0   0  0
  181  0  1   0   0   1  0
  182  0  0   2  41   4  0
  183  1  0   0   0   0  0
  184  0  0   5   0   0  1
  185  2  0   0   0   0  0
  186  0  1   0   0   1  0
  187  0  0   2  42   4  0
  188  1  0   0   0   0  0
  189  0  0   5   0   0  1
  190  2  0   0   0   0  0
  191  0  1   0   0   1  0
  192  0  0   2  43   4  0
  193  1  0   0   0   0  0
  194  0  0   5   0   0  1
  195  2  0   0   0   0  0
  196  0  1   0   0   1  0
  197  0  0   2  44   4  0
  198  1  0   0   0   0  0
  199  0  0   5   0   0  1
  200  2  0   0   0   0  0
  201  0  1   0   0   1  0
  202  0  0   2  45   4  0
  203  1  0   0   0   0  0
  204  0  0   5   0   0  1
  205  2  0   0   0   0  0
  206  0  1   0   0   1  0
  207  0  0   2  46   4  0
  208  1  0   0   0   0  0
  209  0  0   5   0   0  1
  210  2  0   0   0   0  0
  211  0  1   0   0   1  0
  212  0  0   2  47   4  0
  213  1  0   0   0   0  0
  214  0  0   5   0   0  1
  215  2  0   0   0   0  0
  216  0  1   0   0   1  0
  217  0  0   2  48   4  0
  218  1  0   0   0   0  0
  219  0  0   5   0   0  1
  220  2  0   0   0   0  0
  221  0  1   0   0   1  0
  222  0  0   2  49   4  0
  223  1  0   0   0   0  0
  224  0  0   5   0   0  1
  225  2  0   0   0   0  0
  226  0  1   0   0   1  0
  227  0  0   2  50   4  0
  228  1  0   0   0   0  0
  229  0  0   5   0   0  1
  230  2  0   0   0   0  0
  231  0  1   0   0   1  0
  232  0  0   2  51   4  0
  233  1  0   0   0   0  0
  234  0  0   5   0   0  1
  235  2  0   0   0   0  0
  236  0  1   0   0   1  0
  237  0  0   2  52   4  0
  238  1  0   0   0   0  0
  239  0  0   5   0   0  1
  240  2  0   0   0   0  0
  241  0  1   0   0   1  0
  242  0  0   2  53   4  0
  243  1  0   0   0   0  0
  244  0  0   5   0   0  1
  245  2  0   0   0   0  0
  246  0  1   0   0   1  0
  247  0  0   2  54   4  0
  248  1  0   0   0   0  0
  249  0  0   5   0   0  1
  250  2  0   0   0   0  0
  251  0  1   0   0   1  0
  252  0  0   2  55   4  0
  253  1  0   0   0   0  0
  254  0  0   5   0   0  1
  255  2  0   0   0   0  0
  256  0  1   0   0   1  0
  257  0  0   2  56   4  0
  258  1  0   0   0   0  0
  259  0  0   5   0   0  1
  260  2  0   0   0   0  0
  261  0  1   0   0   1  0
  262  0  0   2  57   4  0
  263  1  0   0   0   0  0
  264  0  0   5   0   0  1
  265  2  0   0   0   0  0
  266  0  1   0   0   1  0
  267  0  0   2  58   4  0
  268  1  0   0   0   0  0
  269  0  0   5   0   0  1
  270  2  0   0   0   0  0
  271  0  1   0   0   1  0
  272  0  0   2  59   4  0
  273  1  0   0   0   0  0
  274  0  0   5   0   0  1
  275  2  0   0   0   0  0
  276  0  1   0   0   1  0
  277  0  0   2  60   4  0
  278  1  0   0   0   0  0
  279  0  0   5   0   0  1
  280  2  0   0   0   0  0
  281  0  1   0   0   1  0
  282  0  0   2  61   4  0
  283  1  0   0   0   0  0
  284  0  0   5   0   0  1
  285  2  0   0   0   0  0
  286  0  1   0   0   1  0
  287  0  0   2  62   4  0
  288  1  0   0   0   0  0
  289  0  0   5   0   0  1
  290  2  0   0   0   0  0
  291  0  1   0   0   1  0
  292  0  0   2  63   4  0
  293  1  0   0   0   0  0
  294  0  0   5   0   0  1
  295  2  0   0   0   0  0
  296  0  1   0   0   1  0
  297  0  0   2  64   4  0
  298  1  0   0   0   0  0
  299  0  0   5   0   0  1
  300  2  0   0   0   0  0
  301  0  1   0   0   1  0
  302  0  0   2  65   4  0
  303  1  0   0   0   0  0
  304  0  0   5   0   0  1
  305  2  0   0   0   0  0
  306  0  1   0   0   1  0
  307  0  0   2  66   4  0
  308  1  0   0   0   0  0
  309  0  0   5   0   0  1
  310  2  0   0   0   0  0
  311  0  1   0   0   1  0
  312  0  0   2  67   4  0
  313  1  0   0   0   0  0
  314  0  0   5   0   0  1
  315  2  0   0   0   0  0
  316  0  1   0   0   1  0
  317  0  0   2  68   4  0
  318  1  0   0   0   0  0
  319  0  0   5   0   0  1
  320  2  0   0   0   0  0
  321  0  1   0   0   1  0
  322  0  0   2  69   4  0
  323  1  0   0   0   0  0
  324  0  0   5   0   0  1
  325  2  0   0   0   0  0
  326  0  1   0   0   1  0
  327  0  0   2  70   4  0
  328  1  0   0   0   0  0
  329  0  0   5   0   0  1
  330  2  0   0   0   0  0
  331  0  1   0   0   1  0
  332  0  0   2  71   4  0
  333  1  0   0   0   0  0
  334  0  0   5   0   0  1
  335  2  0   0   0   0  0
  336  0  1   0   0   1  0
  337  0  0   2  72   4  0
  338  1  0   0   0   0  0
  339  0  0   5   0   0  1
  340  2  0   0   0   0  0
  341  0  1   0   0   1  0
  342  0  0   2  73   4  0
  343  1  0   0   0   0  0
  344  0  0   5   0   0  1
  345  2  0   0   0   0  0
  346  0  1   0   0   1  0
  347  0  0   2  74   4  0
  348  1  0   0   0   0  0
  349  0  0   5   0   0  1
  350  2  0   0   0   0  0
  351  0  1   0   0   1  0
  352  0  0   2  75   4  0
  353  1  0   0   0   0  0
  354  0  0   5   0   0  1
  355  2  0   0   0   0  0
  356  0  1   0   0   1  0
  357  0  0   2  76   4  0
  358  1  0   0   0   0  0
  359  0  0   5   0   0  1
  360  2  0   0   0   0  0
  361  0  1   0   0   1  0
  362  0  0   2  77   4  0
  363  1  0   0   0   0  0
  364  0  0   5   0   0  1
[RF]
1      54.8587 1 2 -20000 0
2      54.8587 1 2 -19000 0
3      54.8587 1 2 -18000 0
4      54.8587 1 2 -17000 0
5      54.8587 1 2 -16000 0
6      54.8587 1 2 -15000 0
7      54.8587 1 2 -14000 0
8      54.8587 1 2 -13000 0
9      54.8587 1 2 -12000 0
10      54.8587 1 2 -11000 0
11      54.8587 1 2 -10000 0
12      54.8587 1 2 -9000 0
13      54.8587 1 2 -8000 0
14      54.8587 1 2 -7000 0
15      54.8587 1 2 -6000 0
16      54.8587 1 2 -5000 0
17      54.8587 1 2 -4000 0
18      54.8587 1 2 -3000 0
19      54.8587 1 2 -2000 0
20      54.8587 1 2 -1000 0
21      54.8587 1 2 0 0
22      54.8587 1 2 1000 0
23      54.8587 1 2 2000 0
24      54.8587 1 2 3000 0
25      54.8587 1 2 4000 0
26      54.8587 1 2 5000 0
27      54.8587 1 2 6000 0
28      54.8587 1 2 7000 0
29      54.8587 1 2 8000 0
30      54.8587 1 2 9000 0
31      54.8587 1 2 10000 0
32      54.8587 1 2 11000 0
33      54.8587 1 2 12000 0
34      54.8587 1 2 13000 0
35      54.8587 1 2 14000 0
36      54.8587 1 2 15000 0
37      54.8587 1 2 16000 0
38      54.8587 1 2 17000 0
39      54.8587 1 2 18000 0
40      54.8587 1 2 19000 0
41      54.8587 1 2 20000 0

# Format of trapezoid gradients:
# id amplitude rise flat fall
# ..      Hz/m   us   us   us
[TRAP]
 1       200000  30 4000  30
 2      -299767  50 1900  50
 3      -298368  50 1900  50
 4      -204569  30 1940  30
 5       181818  30 6400  30
 6      -296037  50 1900  50
 7      -293706  50 1900  50
 8      -291375  50 1900  50
 9      -287570  40 1920  40
10      -285250  40 1920  40
11      -282931  40 1920  40
12      -280612  40 1920  40
13      -278293  40 1920  40
14      -275974  40 1920  40
15      -273655  40 1920  40
16      -271336  40 1920  40
17      -269017  40 1920  40
18      -266698  40 1920  40
19      -264378  40 1920  40
20      -262059  40 1920  40
21      -259740  40 1920  40
22      -257421  40 1920  40
23      -255102  40 1920  40
24      -252783  40 1920  40
25      -250464  40 1920  40
26      -248145  40 1920  40
27      -245826  40 1920  40
28      -243506  40 1920  40
29      -241187  40 1920  40
30      -238868  40 1920  40
31      -236549  40 1920  40
32      -234230  40 1920  40
33      -231911  40 1920  40
34      -229592  40 1920  40
35      -227273  40 1920  40
36      -224954  40 1920  40
37      -222635  40 1920  40
38      -220315  40 1920  40
39      -216890  30 1940  30
40      -214582  30 1940  30
41      -212275  30 1940  30
42      -209968  30 1940  30
43      -207660  30 1940  30
44      -205353  30 1940  30
45      -203046  30 1940  30
46      -200738  30 1940  30
47      -198431  30 1940  30
48      -196124  30 1940  30
49      -193816  30 1940  30
50      -191509  30 1940  30
51      -189202  30 1940  30
52      -186894  30 1940  30
53      -184587  30 1940  30
54      -182280  30 1940  30
55      -179972  30 1940  30
56      -177665  30 1940  30
57      -175358  30 1940  30
58      -173050  30 1940  30
59      -170743  30 1940  30
60      -168436  30 1940  30
61      -166128  30 1940  30
62      -163821  30 1940  30
63      -161514  30 1940  30
64      -159206  30 1940  30
65      -156899  30 1940  30
66      -154592  30 1940  30
67      -152284  30 1940  30
68      -149977  30 1940  30
69      -147670  30 1940  30
70      -144628  20 1960  20
71      -142332  20 1960  20
72      -140037  20 1960  20
73      -137741  20 1960  20
74      -135445  20 1960  20
75      -133150  20 1960  20
76      -130854  20 1960  20
77      -128558  20 1960  20
78      -126263  20 1960  20
79      -123967  20 1960  20
80      -121671  20 1960  20
81      -119376  20 1960  20
82      -117080  20 1960  20
83      -114784  20 1960  20
84      -112489  20 1960  20
85      -110193  20 1960  20
86      -107897  20 1960  20
87      -105601  20 1960  20
88      -103306  20 1960  20
89      -101010  20 1960  20
90     -98714.4  20 1960  20
91     -96418.7  20 1960  20
92       -94123  20 1960  20
93     -91827.4  20 1960  20
94     -89531.7  20 1960  20
95       -87236  20 1960  20
96     -84940.3  20 1960  20
97     -82644.6  20 1960  20
98     -80348.9  20 1960  20
99     -78053.3  20 1960  20
100     -75757.6  20 1960  20
101     -73461.9  20 1960  20
102     -70808.6  10 1980  10
103     -68524.4  10 1980  10
104     -66240.3  10 1980  10
105     -63956.1  10 1980  10
106       -61672  10 1980  10
107     -59387.8  10 1980  10
108     -57103.7  10 1980  10
109     -54819.6  10 1980  10
110     -52535.4  10 1980  10
111     -50251.3  10 1980  10
112     -47967.1  10 1980  10
113       -45683  10 1980  10
114     -43398.8  10 1980  10
115     -41114.7  10 1980  10
116     -38830.5  10 1980  10
117     -36546.4  10 1980  10
118     -34262.2  10 1980  10
119     -31978.1  10 1980  10
120     -29693.9  10 1980  10
121     -27409.8  10 1980  10
122     -25125.6  10 1980  10
123     -22841.5  10 1980  10
124     -20557.3  10 1980  10
125     -18273.2  10 1980  10
126       -15989  10 1980  10
127     -13704.9  10 1980  10
128     -11420.7  10 1980  10
129     -9136.59  10 1980  10
130     -6852.44  10 1980  10
131      -4568.3  10 1980  10
132     -2284.15  10 1980  10
133            0   0 2000   0
134      2284.15  10 1980  10
135       4568.3  10 1980  10
136      6852.44  10 1980  10
137      9136.59  10 1980  10
138      11420.7  10 1980  10
139      13704.9  10 1980  10
140        15989  10 1980  10
141      18273.2  10 1980  10
142      20557.3  10 1980  10
143      22841.5  10 1980  10
144      25125.6  10 1980  10
145      27409.8  10 1980  10
146      29693.9  10 1980  10
147      31978.1  10 1980  10
148      34262.2  10 1980  10
149      36546.4  10 1980  10
150      38830.5  10 1980  10
151      41114.7  10 1980  10
152      43398.8  10 1980  10
153        45683  10 1980  10
154      47967.1  10 1980  10
155      50251.3  10 1980  10
156      52535.4  10 1980  10
157      54819.6  10 1980  10
158      57103.7  10 1980  10
159      59387.8  10 1980  10
160        61672  10 1980  10
161      63956.1  10 1980  10
162      66240.3  10 1980  10
163      68524.4  10 1980  10
164      70808.6  10 1980  10
165      73461.9  20 1960  20
166      75757.6  20 1960  20
167      78053.3  20 1960  20
168      80348.9  20 1960  20
169      82644.6  20 1960  20
170      84940.3  20 1960  20
171        87236  20 1960  20
172      89531.7  20 1960  20
173      91827.4  20 1960  20
174        94123  20 1960  20
175      96418.7  20 1960  20
176      98714.4  20 1960  20
177       101010  20 1960  20
178       103306  20 1960  20
179       105601  20 1960  20
180       107897  20 1960  20
181       110193  20 1960  20
182       112489  20 1960  20
183       114784  20 1960  20
184       117080  20 1960  20
185       119376  20 1960  20
186       121671  20 1960  20
187       123967  20 1960  20
188       126263  20 1960  20
189       128558  20 1960  20
190       130854  20 1960  20
191       133150  20 1960  20
192       135445  20 1960  20
193       137741  20 1960  20
194       140037  20 1960  20
195       142332  20 1960  20
196       144628  20 1960  20
197       147670  30 1940  30
198       149977  30 1940  30
199       152284  30 1940  30
200       154592  30 1940  30
201       156899  30 1940  30
202       159206  30 1940  30
203       161514  30 1940  30
204       163821  30 1940  30
205       166128  30 1940  30
206       168436  30 1940  30
207       170743  30 1940  30
208       173050  30 1940  30
209       175358  30 1940  30
210       177665  30 1940  30
211       179972  30 1940  30
212       182280  30 1940  30
213       184587  30 1940  30
214       186894  30 1940  30
215       189202  30 1940  30
216       191509  30 1940  30
217       193816  30 1940  30
218       196124  30 1940  30
219       198431  30 1940  30
220       200738  30 1940  30
221       203046  30 1940  30
222       205353  30 1940  30
223       207660  30 1940  30
224       209968  30 1940  30
225       212275  30 1940  30
226       214582  30 1940  30
227       216890  30 1940  30
228       220315  40 1920  40
229       222635  40 1920  40
230       224954  40 1920  40
231       227273  40 1920  40
232       229592  40 1920  40
233       231911  40 1920  40
234       234230  40 1920  40
235       236549  40 1920  40
236       238868  40 1920  40
237       241187  40 1920  40
238       243506  40 1920  40
239       245826  40 1920  40
240       248145  40 1920  40
241       250464  40 1920  40
242       252783  40 1920  40
243       255102  40 1920  40
244       257421  40 1920  40
245       259740  40 1920  40
246       262059  40 1920  40
247       264378  40 1920  40
248       266698  40 1920  40
249       269017  40 1920  40
250       271336  40 1920  40
251       273655  40 1920  40
252       275974  40 1920  40
253       278293  40 1920  40
254       280612  40 1920  40
255       282931  40 1920  40
256       285250  40 1920  40
257       287570  40 1920  40
258       291375  50 1900  50
259       293706  50 1900  50
260       296037  50 1900  50

# Format of ADC events:
# id num dwell delay freq phase
# ..  ..    ns    us   Hz   rad
[ADC]
 1 256  25000 3.000000e+01 0 0

# Format of delays:
# id delay (us)
[DELAYS]
1 2740
2 984740

# Sequence Shapes
[SHAPES]

shape_id 1
num_samples 4130
0
0
104
3.93359e-08
5.23773e-08
6.72953e-08
8.40932e-08
1.02774e-07
1.23341e-07
1.45797e-07
1.70145e-07
1.96389e-07
2.2453e-07
2.54572e-07
2.86517e-07
3.20368e-07
3.56129e-07
3.938e-07
4.33385e-07
4.74886e-07
5.18306e-07
5.63646e-07
6.1091e-07
6.60098e-07
7.11214e-07
7.6426e-07
8.19236e-07
8.76146e-07
9.34991e-07
9.95773e-07
1.05849e-06
1.12315e-06
1.18976e-06
1.2583e-06
1.32879e-06
1.40123e-06
1.47561e-06
1.55195e-06
1.63023e-06
1.71046e-06
1.79265e-06
1.87679e-06
1.96289e-06
2.05093e-06
2.14094e-06
2.2329e-06
2.32682e-06
2.4227e-06
2.52053e-06
2.62033e-06
2.72208e-06
2.82579e-06
2.93147e-06
3.0391e-06
3.14869e-06
3.26025e-06
3.37376e-06
3.48923e-06
3.60667e-06
3.72606e-06
3.84742e-06
3.97073e-06
4.09601e-06
4.22324e-06
4.35243e-06
4.48357e-06
4.61668e-06
4.75174e-06
4.88875e-06
5.02772e-06
5.16864e-06
5.31152e-06
5.45634e-06
5.60312e-06
5.75184e-06
5.90251e-06
6.05513e-06
6.2097e-06
6.3662e-06
6.52465e-06
6.68504e-06
6.84737e-06
7.01163e-06
7.17783e-06
7.34596e-06
7.51602e-06
7.68801e-06
7.86193e-06
8.03777e-06
8.21554e-06
8.39522e-06
8.57682e-06
8.76034e-06
8.94577e-06
9.13311e-06
9.32235e-06
9.5135e-06
9.70656e-06
9.90151e-06
1.00984e-05
1.02971e-05
1.04977e-05
1.07002e-05
1.09046e-05
1.11109e-05
1.13191e-05
1.15291e-05
1.1741e-05
1.19548e-05
1.21704e-05
1.23879e-05
1.26072e-05
1.28284e-05
1.30514e-05
1.32763e-05
1.3503e-05
1.37316e-05
1.3962e-05
1.41942e-05
1.44282e-05
1.46641e-05
1.49017e-05
1.51412e-05
1.53825e-05
1.56255e-05
1.58704e-05
1.6117e-05
1.63655e-05
1.66157e-05
1.68677e-05
1.71214e-05
1.7377e-05
1.76343e-05
1.78933e-05
1.81541e-05
1.84166e-05
1.86809e-05
1.89468e-05
1.92146e-05
1.9484e-05
1.97551e-05
2.0028e-05
2.03026e-05
2.05788e-05
2.08567e-05
2.11364e-05
2.14177e-05
2.17006e-05
2.19853e-05
2.22716e-05
2.25595e-05
2.28491e-05
2.31403e-05
2.34332e-05
2.37277e-05
2.40238e-05
2.43215e-05
2.46208e-05
2.49217e-05
2.52242e-05
2.55282e-05
2.58339e-05
2.61411e-05
2.64499e-05
2.67602e-05
2.70721e-05
2.73855e-05
2.77004e-05
2.80169e-05
2.83348e-05
2.86543e-05
2.89753e-05
2.92977e-05
2.96217e-05
2.99471e-05
3.0274e-05
3.06023e-05
3.09321e-05
3.12633e-05
3.15959e-05
3.193e-05
3.22655e-05
3.26023e-05
3.29406e-05
3.32803e-05
3.36213e-05
3.39637e-05
3.43075e-05
3.46526e-05
3.49991e-05
3.53469e-05
3.5696e-05
3.60464e-05
3.63981e-05
3.67512e-05
3.71055e-05
3.7461e-05
3.78179e-05
3.8176e-05
3.85353e-05
3.88959e-05
3.92577e-05
3.96207e-05
3.99849e-05
4.03503e-05
4.07169e-05
4.10847e-05
4.14536e-05
4.18237e-05
4.21949e-05
4.25672e-05
4.29407e-05
4.33153e-05
4.3691e-05
4.40677e-05
4.44456e-05
4.48245e-05
4.52044e-05
4.55854e-05
4.59675e-05
4.63505e-05
4.67346e-05
4.71197e-05
4.75057e-05
4.78927e-05
4.82807e-05
4.86697e-05
4.90596e-05
4.94504e-05
4.98421e-05
5.02347e-05
5.06282e-05
5.10226e-05
5.14179e-05
5.1814e-05
5.2211e-05
5.26088e-05
5.30074e-05
5.34069e-05
5.38071e-05
5.42081e-05
5.46099e-05
5.50124e-05
5.54157e-05
5.58197e-05
5.62244e-05
5.66298e-05
5.70359e-05
5.74427e-05
5.78502e-05
5.82583e-05
5.86671e-05
5.90765e-05
5.94865e-05
5.98971e-05
6.03083e-05
6.072e-05
6.11324e-05
6.15452e-05
6.19586e-05
6.23726e-05
6.2787e-05
6.32019e-05
6.36173e-05
6.40332e-05
6.44495e-05
6.48662e-05
6.52834e-05
6.5701e-05
6.61189e-05
6.65373e-05
6.6956e-05
6.73751e-05
6.77945e-05
6.82142e-05
6.86342e-05
6.90545e-05
6.94751e-05
6.9896e-05
7.03171e-05
7.07385e-05
7.11601e-05
7.15818e-05
7.20038e-05
7.24259e-05
7.28482e-05
7.32707e-05
7.36932e-05
7.41159e-05
7.45387e-05
7.49616e-05
7.53845e-05
7.58075e-05
7.62306e-05
7.66536e-05
7.70767e-05
7.74997e-05
7.79228e-05
7.83457e-05
7.87687e-05
7.91915e-05
7.96143e-05
8.0037e-05
8.04595e-05
8.0882e-05
8.13042e-05
8.17263e-05
8.21483e-05
8.257e-05
8.29915e-05
8.34128e-05
8.38338e-05
8.42546e-05
8.46751e-05
8.50953e-05
8.55151e-05
8.59347e-05
8.63539e-05
8.67728e-05
8.71912e-05
8.76093e-05
8.8027e-05
8.84442e-05
8.8861e-05
8.92773e-05
8.96932e-05
9.01085e-05
9.05234e-05
9.09377e-05
9.13515e-05
9.17647e-05
9.21773e-05
9.25893e-05
9.30007e-05
9.34115e-05
9.38217e-05
9.42311e-05
9.46399e-05
9.5048e-05
9.54554e-05
9.5862e-05
9.62679e-05
9.6673e-05
9.70774e-05
9.74809e-05
9.78836e-05
9.82855e-05
9.86865e-05
9.90866e-05
9.94859e-05
9.98842e-05
0.000100282
0.000100678
0.000101074
0.000101468
0.000101862
0.000102254
0.000102646
0.000103036
0.000103425
0.000103814
0.000104201
0.000104587
0.000104972
0.000105356
0.000105738
0.000106119
0.0001065
0.000106878
0.000107256
0.000107633
0.000108008
0.000108381
0.000108754
0.000109125
0.000109495
0.000109863
0.00011023
0.000110596
0.00011096
0.000111323
0.000111684
0.000112044
0.000112402
0.000112759
0.000113114
0.000113468
0.00011382
0.00011417
0.000114519
0.000114866
0.000115211
0.000115555
0.000115897
0.000116238
0.000116577
0.000116914
0.000117249
0.000117582
0.000117914
0.000118244
0.000118572
0.000118898
0.000119222
0.000119544
0.000119864
0.000120183
0.000120499
0.000120814
0.000121126
0.000121437
0.000121745
0.000122052
0.000122356
0.000122658
0.000122959
0.000123257
0.000123553
0.000123846
0.000124138
0.000124427
0.000124714
0.000124999
0.000125282
0.000125562
0.00012584
0.000126116
0.000126389
0.00012666
0.000126929
0.000127195
0.000127459
0.000127721
0.00012798
0.000128236
0.00012849
0.000128742
0.000128991
0.000129237
0.000129481
0.000129723
0.000129961
0.000130197
0.000130431
0.000130662
0.00013089
0.000131115
0.000131338
0.000131558
0.000131775
0.00013199
0.000132202
0.000132411
0.000132617
0.00013282
0.00013302
0.000133218
0.000133412
0.000133604
0.000133793
0.000133978
0.000134161
0.000134341
0.000134518
0.000134691
0.000134862
0.00013503
0.000135194
0.000135356
0.000135514
0.000135669
0.000135821
0.00013597
0.000136115
0.000136258
0.000136397
0.000136533
0.000136665
0.000136794
0.00013692
0.000137043
0.000137162
0.000137278
0.000137391
0.0001375
0.000137606
0.000137708
0.000137807
0.000137902
0.000137994
0.000138082
0.000138167
0.000138248
0.000138326
0.0001384
0.00013847
0.000138537
0.0001386
0.00013866
0.000138715
0.000138767
0.000138816
0.000138861
0.000138901
0.000138939
0.000138972
0.000139002
0.000139027
0.000139049
0.000139067
0.000139081
0.000139091
0.000139091
4
0.00013907
0.000139053
0.000139031
0.000139005
0.000138976
0.000138942
0.000138904
0.000138862
0.000138816
0.000138766
0.000138711
0.000138652
0.00013859
0.000138522
0.000138451
0.000138375
0.000138296
0.000138211
0.000138123
0.00013803
0.000137933
0.000137831
0.000137725
0.000137615
0.0001375
0.000137381
0.000137258
0.00013713
0.000136997
0.00013686
0.000136718
0.000136572
0.000136422
0.000136267
0.000136107
0.000135942
0.000135773
0.0001356
0.000135422
0.000135239
0.000135051
0.000134859
0.000134662
0.00013446
0.000134254
0.000134043
0.000133827
0.000133606
0.000133381
0.000133151
0.000132915
0.000132675
0.000132431
0.000132181
0.000131926
0.000131667
0.000131402
0.000131133
0.000130859
0.00013058
0.000130295
0.000130006
0.000129712
0.000129413
0.000129108
0.000128799
0.000128485
0.000128165
0.000127841
0.000127511
0.000127176
0.000126836
0.000126491
0.000126141
0.000125785
0.000125425
0.000125059
0.000124688
0.000124311
0.00012393
0.000123543
0.000123151
0.000122754
0.000122351
0.000121943
0.00012153
0.000121111
0.000120687
0.000120258
0.000119823
0.000119383
0.000118937
0.000118486
0.00011803
0.000117568
0.000117101
0.000116628
0.00011615
0.000115666
0.000115177
0.000114682
0.000114182
0.000113676
0.000113165
0.000112648
0.000112125
0.000111597
0.000111064
0.000110524
0.000109979
0.000109429
0.000108873
0.000108311
0.000107743
0.00010717
0.000106591
0.000106007
0.000105416
0.00010482
0.000104219
0.000103611
0.000102998
0.000102379
0.000101754
0.000101123
0.000100487
9.98448e-05
9.91968e-05
9.8543e-05
9.78834e-05
9.72179e-05
9.65465e-05
9.58693e-05
9.51862e-05
9.44972e-05
9.38024e-05
9.31016e-05
9.23949e-05
9.16823e-05
9.09638e-05
9.02393e-05
8.95089e-05
8.87725e-05
8.80302e-05
8.72819e-05
8.65276e-05
8.57674e-05
8.50011e-05
8.42288e-05
8.34505e-05
8.26662e-05
8.18759e-05
8.10795e-05
8.02771e-05
7.94686e-05
7.8654e-05
7.78334e-05
7.70068e-05
7.6174e-05
7.53351e-05
7.44902e-05
7.36391e-05
7.2782e-05
7.19187e-05
7.10493e-05
7.01737e-05
6.9292e-05
6.84042e-05
6.75102e-05
6.66101e-05
6.57038e-05
6.47913e-05
6.38727e-05
6.29479e-05
6.20169e-05
6.10797e-05
6.01363e-05
5.91866e-05
5.82308e-05
5.72688e-05
5.63006e-05
5.53261e-05
5.43454e-05
5.33584e-05
5.23653e-05
5.13658e-05
5.03602e-05
4.93482e-05
4.83301e-05
4.73056e-05
4.62749e-05
4.52379e-05
4.41947e-05
4.31451e-05
4.20893e-05
4.10272e-05
3.99588e-05
3.88841e-05
3.78031e-05
3.67159e-05
3.56223e-05
3.45224e-05
3.34162e-05
3.23037e-05
3.11849e-05
3.00597e-05
2.89282e-05
2.77905e-05
2.66464e-05
2.54959e-05
2.43391e-05
2.3176e-05
2.20066e-05
2.08309e-05
1.96488e-05
1.84603e-05
1.72655e-05
1.60644e-05
1.48569e-05
1.36431e-05
1.2423e-05
1.11965e-05
9.96364e-06
8.72445e-06
7.47891e-06
6.22702e-06
4.96879e-06
3.7042e-06
2.43326e-06
1.15598e-06
-1.27658e-07
-1.41764e-06
-2.71398e-06
-4.01666e-06
-5.32569e-06
-6.64107e-06
-7.9628e-06
-9.29087e-06
-1.06253e-05
-1.19661e-05
-1.33132e-05
-1.46666e-05
-1.60264e-05
-1.73925e-05
-1.8765e-05
-2.01438e-05
-2.1529e-05
-2.29204e-05
-2.43182e-05
-2.57224e-05
-2.71328e-05
-2.85496e-05
-2.99727e-05
-3.14021e-05
-3.28379e-05
-3.42799e-05
-3.57283e-05
-3.7183e-05
-3.8644e-05
-4.01112e-05
-4.15848e-05
-4.30647e-05
-4.45509e-05
-4.60433e-05
-4.7542e-05
-4.90471e-05
-5.05583e-05
-5.20759e-05
-5.35997e-05
-5.51298e-05
-5.66662e-05
-5.82088e-05
-5.97576e-05
-6.13127e-05
-6.28741e-05
-6.44417e-05
-6.60155e-05
-6.75955e-05
-6.91817e-05
-7.07742e-05
-7.23729e-05
-7.39777e-05
-7.55888e-05
-7.7206e-05
-7.88295e-05
-8.04591e-05
-8.20949e-05
-8.37368e-05
-8.53849e-05
-8.70392e-05
-8.86996e-05
-9.03661e-05
-9.20388e-05
-9.37176e-05
-9.54025e-05
-9.70935e-05
-9.87906e-05
-0.000100494
-0.000102203
-0.000103919
-0.00010564
-0.000107368
-0.000109101
-0.000110841
-0.000112586
-0.000114338
-0.000116096
-0.000117859
-0.000119629
-0.000121405
-0.000123187
-0.000124974
-0.000126768
-0.000128567
-0.000130373
-0.000132184
-0.000134002
-0.000135825
-0.000137654
-0.000139489
-0.00014133
-0.000143177
-0.00014503
-0.000146889
-0.000148753
-0.000150623
-0.0001525
-0.000154381
-0.000156269
-0.000158163
-0.000160062
-0.000161967
-0.000163878
-0.000165794
-0.000167717
-0.000169645
-0.000171578
-0.000173518
-0.000175463
-0.000177414
-0.00017937
-0.000181332
-0.0001833
-0.000185273
-0.000187252
-0.000189236
-0.000191226
-0.000193222
-0.000195223
-0.00019723
-0.000199242
-0.00020126
-0.000203283
-0.000205312
-0.000207346
-0.000209386
-0.000211431
-0.000213481
-0.000215537
-0.000217598
-0.000219665
-0.000221737
-0.000223815
-0.000225897
-0.000227985
-0.000230079
-0.000232177
-0.000234281
-0.00023639
-0.000238505
-0.000240624
-0.000242749
-0.000244879
-0.000247015
-0.000249155
-0.0002513
-0.000253451
-0.000255607
-0.000257768
-0.000259933
-0.000262104
-0.00026428
-0.000266461
-0.000268647
-0.000270838
-0.000273034
